;+
;> DESCRIPTION = 'Filter transmission curve for V-Band'
;> WAVE_UNITS  = '[um]'
;> T_UNITS     = '[]'
;-

;~            WAVE                T
     4.7010000E-01    3.9100000E-01
     4.7056000E-01    3.7830000E-01
     4.7102000E-01    3.6960000E-01
     4.7148000E-01    3.5290000E-01
     4.7194000E-01    3.4840000E-01
     4.7239000E-01    3.4050000E-01
     4.7285000E-01    3.2770000E-01
     4.7331000E-01    3.3440000E-01
     4.7377000E-01    4.0240000E-01
     4.7423000E-01    4.6100000E-01
     4.7468000E-01    5.4710000E-01
     4.7514000E-01    6.4190000E-01
     4.7560000E-01    7.2160000E-01
     4.7606000E-01    7.9590000E-01
     4.7652000E-01    9.0300000E-01
     4.7697000E-01    1.1275000E+00
     4.7743000E-01    1.3199000E+00
     4.7789000E-01    1.5332000E+00
     4.7835000E-01    1.6867000E+00
     4.7880000E-01    1.9083000E+00
     4.7926000E-01    2.2674000E+00
     4.7972000E-01    2.7068000E+00
     4.8018000E-01    3.1895000E+00
     4.8063000E-01    3.5580000E+00
     4.8109000E-01    4.0095000E+00
     4.8155000E-01    4.6900000E+00
     4.8201000E-01    5.6835000E+00
     4.8246000E-01    6.5483000E+00
     4.8292000E-01    7.1937000E+00
     4.8338000E-01    7.8661000E+00
     4.8384000E-01    9.2118000E+00
     4.8429000E-01    1.0878000E+01
     4.8475000E-01    1.2239900E+01
     4.8521000E-01    1.3184000E+01
     4.8567000E-01    1.4573000E+01
     4.8612000E-01    1.6981100E+01
     4.8658000E-01    1.9568300E+01
     4.8704000E-01    2.1592400E+01
     4.8750000E-01    2.3172300E+01
     4.8795000E-01    2.5450100E+01
     4.8841000E-01    2.8398100E+01
     4.8887000E-01    3.1085500E+01
     4.8932000E-01    3.3073600E+01
     4.8978000E-01    3.4815700E+01
     4.9024000E-01    3.6528800E+01
     4.9070000E-01    3.7546500E+01
     4.9115000E-01    3.7865800E+01
     4.9161000E-01    3.8319400E+01
     4.9207000E-01    3.9063800E+01
     4.9252000E-01    3.8765200E+01
     4.9298000E-01    3.6956600E+01
     4.9344000E-01    3.5127000E+01
     4.9389000E-01    3.5032200E+01
     4.9435000E-01    3.5559100E+01
     4.9481000E-01    3.4737800E+01
     4.9526000E-01    3.2067700E+01
     4.9572000E-01    2.9741800E+01
     4.9618000E-01    2.9338000E+01
     4.9663000E-01    2.9953600E+01
     4.9709000E-01    2.9528600E+01
     4.9755000E-01    2.7783000E+01
     4.9800000E-01    2.6151300E+01
     4.9846000E-01    2.6220700E+01
     4.9892000E-01    2.7065600E+01
     4.9937000E-01    2.7330600E+01
     4.9983000E-01    2.6304400E+01
     5.0029000E-01    2.5241300E+01
     5.0074000E-01    2.5331000E+01
     5.0120000E-01    2.6522600E+01
     5.0166000E-01    2.7533800E+01
     5.0211000E-01    2.7319400E+01
     5.0257000E-01    2.6638500E+01
     5.0303000E-01    2.6672300E+01
     5.0348000E-01    2.7985700E+01
     5.0394000E-01    2.9695000E+01
     5.0440000E-01    3.0695900E+01
     5.0485000E-01    3.0848300E+01
     5.0531000E-01    3.1120800E+01
     5.0576000E-01    3.2547500E+01
     5.0622000E-01    3.4901600E+01
     5.0668000E-01    3.7066200E+01
     5.0713000E-01    3.8203200E+01
     5.0759000E-01    3.8866100E+01
     5.0805000E-01    4.0086500E+01
     5.0850000E-01    4.2671300E+01
     5.0896000E-01    4.5865600E+01
     5.0941000E-01    4.8416900E+01
     5.0987000E-01    4.9807200E+01
     5.1033000E-01    5.1035400E+01
     5.1078000E-01    5.3742200E+01
     5.1124000E-01    5.7504200E+01
     5.1169000E-01    6.0721700E+01
     5.1215000E-01    6.1975300E+01
     5.1261000E-01    6.2483600E+01
     5.1306000E-01    6.3812300E+01
     5.1352000E-01    6.6456200E+01
     5.1397000E-01    6.8883300E+01
     5.1443000E-01    6.9873300E+01
     5.1488000E-01    6.9804600E+01
     5.1534000E-01    7.0226100E+01
     5.1580000E-01    7.1868500E+01
     5.1625000E-01    7.3199100E+01
     5.1671000E-01    7.2664900E+01
     5.1716000E-01    7.0984200E+01
     5.1762000E-01    7.0586300E+01
     5.1807000E-01    7.1999200E+01
     5.1853000E-01    7.3358100E+01
     5.1898000E-01    7.2186300E+01
     5.1944000E-01    6.9394300E+01
     5.1990000E-01    6.7538000E+01
     5.2035000E-01    6.8273300E+01
     5.2081000E-01    7.0039800E+01
     5.2126000E-01    7.0117700E+01
     5.2172000E-01    6.7700400E+01
     5.2217000E-01    6.5037800E+01
     5.2263000E-01    6.4433500E+01
     5.2308000E-01    6.6633500E+01
     5.2354000E-01    6.9031800E+01
     5.2399000E-01    6.9171300E+01
     5.2445000E-01    6.6678200E+01
     5.2490000E-01    6.4583300E+01
     5.2536000E-01    6.5215300E+01
     5.2581000E-01    6.8086800E+01
     5.2627000E-01    7.0115500E+01
     5.2673000E-01    6.9556200E+01
     5.2718000E-01    6.6901900E+01
     5.2764000E-01    6.5039900E+01
     5.2809000E-01    6.5799400E+01
     5.2855000E-01    6.8819900E+01
     5.2900000E-01    7.1460600E+01
     5.2946000E-01    7.1443200E+01
     5.2991000E-01    6.9294700E+01
     5.3037000E-01    6.7340400E+01
     5.3082000E-01    6.7621800E+01
     5.3127000E-01    7.0209500E+01
     5.3173000E-01    7.2779400E+01
     5.3218000E-01    7.3292100E+01
     5.3264000E-01    7.0945400E+01
     5.3309000E-01    6.8182900E+01
     5.3355000E-01    6.7203000E+01
     5.3400000E-01    6.8935800E+01
     5.3446000E-01    7.1513500E+01
     5.3491000E-01    7.2715300E+01
     5.3537000E-01    7.1092600E+01
     5.3582000E-01    6.7932000E+01
     5.3628000E-01    6.6078400E+01
     5.3673000E-01    6.7153300E+01
     5.3719000E-01    7.0115900E+01
     5.3764000E-01    7.1846300E+01
     5.3810000E-01    7.0845100E+01
     5.3855000E-01    6.7822000E+01
     5.3900000E-01    6.5627200E+01
     5.3946000E-01    6.6242900E+01
     5.3991000E-01    6.9226100E+01
     5.4037000E-01    7.1943300E+01
     5.4082000E-01    7.1871600E+01
     5.4128000E-01    6.9124400E+01
     5.4173000E-01    6.6151900E+01
     5.4218000E-01    6.5605000E+01
     5.4264000E-01    6.7976200E+01
     5.4309000E-01    7.1553100E+01
     5.4355000E-01    7.3621800E+01
     5.4400000E-01    7.3100700E+01
     5.4446000E-01    7.0890300E+01
     5.4491000E-01    6.9594500E+01
     5.4536000E-01    7.0605800E+01
     5.4582000E-01    7.3438900E+01
     5.4627000E-01    7.6194800E+01
     5.4673000E-01    7.7031500E+01
     5.4718000E-01    7.5900200E+01
     5.4763000E-01    7.4117000E+01
     5.4809000E-01    7.3293300E+01
     5.4854000E-01    7.4209200E+01
     5.4900000E-01    7.5818300E+01
     5.4945000E-01    7.7256800E+01
     5.4990000E-01    7.7050800E+01
     5.5036000E-01    7.6052500E+01
     5.5081000E-01    7.4798700E+01
     5.5126000E-01    7.4507100E+01
     5.5172000E-01    7.4935900E+01
     5.5217000E-01    7.6050000E+01
     5.5263000E-01    7.6993300E+01
     5.5308000E-01    7.7537100E+01
     5.5353000E-01    7.7329100E+01
     5.5399000E-01    7.6580500E+01
     5.5444000E-01    7.5693400E+01
     5.5489000E-01    7.5054400E+01
     5.5535000E-01    7.5284900E+01
     5.5580000E-01    7.5935000E+01
     5.5625000E-01    7.6691700E+01
     5.5671000E-01    7.6675600E+01
     5.5716000E-01    7.5846500E+01
     5.5762000E-01    7.4294500E+01
     5.5807000E-01    7.3319500E+01
     5.5852000E-01    7.3460300E+01
     5.5898000E-01    7.4790500E+01
     5.5943000E-01    7.6071500E+01
     5.5988000E-01    7.6267400E+01
     5.6034000E-01    7.5135600E+01
     5.6079000E-01    7.2897100E+01
     5.6124000E-01    7.1176800E+01
     5.6169000E-01    7.1141700E+01
     5.6215000E-01    7.3040300E+01
     5.6260000E-01    7.5342800E+01
     5.6305000E-01    7.6248300E+01
     5.6351000E-01    7.5077400E+01
     5.6396000E-01    7.2686100E+01
     5.6441000E-01    7.0920900E+01
     5.6487000E-01    7.1355000E+01
     5.6532000E-01    7.3657300E+01
     5.6577000E-01    7.6169100E+01
     5.6623000E-01    7.7273600E+01
     5.6668000E-01    7.6049200E+01
     5.6713000E-01    7.3622100E+01
     5.6758000E-01    7.1870300E+01
     5.6804000E-01    7.2544100E+01
     5.6849000E-01    7.5121900E+01
     5.6894000E-01    7.7594300E+01
     5.6940000E-01    7.8214100E+01
     5.6985000E-01    7.6726700E+01
     5.7030000E-01    7.4371200E+01
     5.7075000E-01    7.3174600E+01
     5.7121000E-01    7.3495000E+01
     5.7166000E-01    7.5008700E+01
     5.7211000E-01    7.6028600E+01
     5.7256000E-01    7.6069000E+01
     5.7302000E-01    7.5359000E+01
     5.7347000E-01    7.4523000E+01
     5.7392000E-01    7.4325300E+01
     5.7437000E-01    7.4443100E+01
     5.7483000E-01    7.4626500E+01
     5.7528000E-01    7.4128900E+01
     5.7573000E-01    7.3286100E+01
     5.7618000E-01    7.2779600E+01
     5.7664000E-01    7.3264300E+01
     5.7709000E-01    7.4225300E+01
     5.7754000E-01    7.4465300E+01
     5.7799000E-01    7.3342100E+01
     5.7845000E-01    7.1284200E+01
     5.7890000E-01    6.9773400E+01
     5.7935000E-01    7.0037000E+01
     5.7980000E-01    7.1721000E+01
     5.8025000E-01    7.3561000E+01
     5.8071000E-01    7.4020000E+01
     5.8116000E-01    7.2451000E+01
     5.8161000E-01    6.9539500E+01
     5.8206000E-01    6.7210700E+01
     5.8252000E-01    6.7377000E+01
     5.8297000E-01    7.0037700E+01
     5.8342000E-01    7.3263100E+01
     5.8387000E-01    7.4818800E+01
     5.8432000E-01    7.3361800E+01
     5.8478000E-01    6.9793200E+01
     5.8523000E-01    6.6684900E+01
     5.8568000E-01    6.6199000E+01
     5.8613000E-01    6.8798400E+01
     5.8658000E-01    7.2324800E+01
     5.8703000E-01    7.4766400E+01
     5.8749000E-01    7.4543700E+01
     5.8794000E-01    7.2357800E+01
     5.8839000E-01    6.9687900E+01
     5.8884000E-01    6.8839500E+01
     5.8929000E-01    7.0345500E+01
     5.8974000E-01    7.3371400E+01
     5.9020000E-01    7.6170200E+01
     5.9065000E-01    7.7036600E+01
     5.9110000E-01    7.6175000E+01
     5.9155000E-01    7.4372100E+01
     5.9200000E-01    7.3571400E+01
     5.9245000E-01    7.4511500E+01
     5.9291000E-01    7.6853900E+01
     5.9336000E-01    7.9254200E+01
     5.9381000E-01    8.0530200E+01
     5.9426000E-01    8.0561800E+01
     5.9471000E-01    7.9790400E+01
     5.9516000E-01    7.9080200E+01
     5.9561000E-01    7.8896700E+01
     5.9607000E-01    7.9805700E+01
     5.9652000E-01    8.0968400E+01
     5.9697000E-01    8.1684300E+01
     5.9742000E-01    8.1305100E+01
     5.9787000E-01    7.9793300E+01
     5.9832000E-01    7.7899500E+01
     5.9877000E-01    7.6240900E+01
     5.9922000E-01    7.6176400E+01
     5.9967000E-01    7.6958400E+01
     6.0013000E-01    7.7679200E+01
     6.0058000E-01    7.6508700E+01
     6.0103000E-01    7.3509900E+01
     6.0148000E-01    6.9090800E+01
     6.0193000E-01    6.4785400E+01
     6.0238000E-01    6.2221900E+01
     6.0283000E-01    6.2028100E+01
     6.0328000E-01    6.3167800E+01
     6.0373000E-01    6.3196100E+01
     6.0418000E-01    6.0198500E+01
     6.0463000E-01    5.4337900E+01
     6.0509000E-01    4.7779100E+01
     6.0554000E-01    4.3164400E+01
     6.0599000E-01    4.2071900E+01
     6.0644000E-01    4.3554000E+01
     6.0689000E-01    4.5116100E+01
     6.0734000E-01    4.4165000E+01
     6.0779000E-01    3.9985900E+01
     6.0824000E-01    3.3793300E+01
     6.0869000E-01    2.7980400E+01
     6.0914000E-01    2.4689400E+01
     6.0959000E-01    2.4675800E+01
     6.1004000E-01    2.6649200E+01
     6.1049000E-01    2.8098600E+01
     6.1094000E-01    2.7283300E+01
     6.1139000E-01    2.4060300E+01
     6.1184000E-01    1.9641600E+01
     6.1229000E-01    1.5845300E+01
     6.1275000E-01    1.3935200E+01
     6.1320000E-01    1.4161200E+01
     6.1365000E-01    1.5492000E+01
     6.1410000E-01    1.6512000E+01
     6.1455000E-01    1.6194000E+01
     6.1500000E-01    1.4363200E+01
     6.1545000E-01    1.1711800E+01
     6.1590000E-01    9.3558000E+00
     6.1635000E-01    8.0492000E+00
     6.1680000E-01    7.9322000E+00
     6.1725000E-01    8.5479000E+00
     6.1770000E-01    9.1978000E+00
     6.1815000E-01    9.2718000E+00
     6.1860000E-01    8.5952000E+00
     6.1905000E-01    7.3561000E+00
     6.1950000E-01    6.0859000E+00
     6.1995000E-01    5.1821000E+00
     6.2040000E-01    4.8646000E+00
     6.2085000E-01    4.9804000E+00
     6.2130000E-01    5.2344000E+00
     6.2175000E-01    5.3573000E+00
     6.2220000E-01    5.1770000E+00
     6.2265000E-01    4.7311000E+00
     6.2310000E-01    4.1295000E+00
     6.2355000E-01    3.5780000E+00
     6.2400000E-01    3.2126000E+00
     6.2445000E-01    3.0481000E+00
     6.2489000E-01    3.0226000E+00
     6.2534000E-01    3.0528000E+00
     6.2579000E-01    3.0526000E+00
     6.2624000E-01    2.9896000E+00
     6.2669000E-01    2.8249000E+00
     6.2714000E-01    2.5887000E+00
     6.2759000E-01    2.3001000E+00
     6.2804000E-01    2.0462000E+00
     6.2849000E-01    1.8683000E+00
     6.2894000E-01    1.7903000E+00
     6.2939000E-01    1.8107000E+00
     6.2984000E-01    1.8670000E+00
     6.3029000E-01    1.9205000E+00
     6.3074000E-01    1.8811000E+00
     6.3119000E-01    1.7785000E+00
     6.3164000E-01    1.6087000E+00
     6.3209000E-01    1.4081000E+00
     6.3254000E-01    1.2172000E+00
     6.3298000E-01    1.0927000E+00
     6.3343000E-01    1.1036000E+00
     6.3388000E-01    1.1872000E+00
     6.3433000E-01    1.2786000E+00
     6.3478000E-01    1.3197000E+00
     6.3523000E-01    1.2683000E+00
     6.3568000E-01    1.1295000E+00
     6.3613000E-01    9.2640000E-01
     6.3658000E-01    7.8640000E-01
     6.3703000E-01    7.2450000E-01
     6.3747000E-01    7.5350000E-01
     6.3792000E-01    8.1270000E-01
     6.3837000E-01    9.0530000E-01
     6.3882000E-01    9.5710000E-01
     6.3927000E-01    9.2830000E-01
     6.3972000E-01    8.2740000E-01
     6.4017000E-01    6.8890000E-01
