;+
;> DESCRIPTION = 'Filter transmission curve for R-Band'
;> WAVE_UNITS  = '[um]'
;> T_UNITS     = '[]'
;-

;~            WAVE                T
     5.4037000E-01    1.6730000E-01
     5.4082000E-01    1.8050000E-01
     5.4128000E-01    1.7890000E-01
     5.4173000E-01    1.8120000E-01
     5.4218000E-01    1.8470000E-01
     5.4264000E-01    1.8420000E-01
     5.4309000E-01    1.8570000E-01
     5.4355000E-01    1.9540000E-01
     5.4400000E-01    2.0090000E-01
     5.4446000E-01    2.1060000E-01
     5.4491000E-01    2.2980000E-01
     5.4536000E-01    2.6100000E-01
     5.4582000E-01    2.7340000E-01
     5.4627000E-01    2.9660000E-01
     5.4673000E-01    3.2120000E-01
     5.4718000E-01    3.6530000E-01
     5.4763000E-01    4.2070000E-01
     5.4809000E-01    4.8890000E-01
     5.4854000E-01    5.5430000E-01
     5.4900000E-01    6.6460000E-01
     5.4945000E-01    7.9500000E-01
     5.4990000E-01    9.4810000E-01
     5.5036000E-01    1.1256000E+00
     5.5081000E-01    1.3598000E+00
     5.5126000E-01    1.6496000E+00
     5.5172000E-01    1.9983000E+00
     5.5217000E-01    2.4097000E+00
     5.5263000E-01    2.9078000E+00
     5.5308000E-01    3.4936000E+00
     5.5353000E-01    4.1689000E+00
     5.5399000E-01    4.9408000E+00
     5.5444000E-01    5.8463000E+00
     5.5489000E-01    6.8479000E+00
     5.5535000E-01    7.9997000E+00
     5.5580000E-01    9.2301000E+00
     5.5625000E-01    1.0592400E+01
     5.5671000E-01    1.2109700E+01
     5.5716000E-01    1.3742000E+01
     5.5762000E-01    1.5411700E+01
     5.5807000E-01    1.7239900E+01
     5.5852000E-01    1.9122800E+01
     5.5898000E-01    2.1152900E+01
     5.5943000E-01    2.3215300E+01
     5.5988000E-01    2.5281500E+01
     5.6034000E-01    2.7509000E+01
     5.6079000E-01    2.9720400E+01
     5.6124000E-01    3.1907500E+01
     5.6169000E-01    3.4155500E+01
     5.6215000E-01    3.6358800E+01
     5.6260000E-01    3.8549000E+01
     5.6305000E-01    4.0763400E+01
     5.6351000E-01    4.2803200E+01
     5.6396000E-01    4.4780900E+01
     5.6441000E-01    4.6751400E+01
     5.6487000E-01    4.8612500E+01
     5.6532000E-01    5.0327400E+01
     5.6577000E-01    5.1929900E+01
     5.6623000E-01    5.3485900E+01
     5.6668000E-01    5.4965700E+01
     5.6713000E-01    5.6436900E+01
     5.6758000E-01    5.7865800E+01
     5.6804000E-01    5.9181800E+01
     5.6849000E-01    6.0491600E+01
     5.6894000E-01    6.1696000E+01
     5.6940000E-01    6.2734900E+01
     5.6985000E-01    6.3682700E+01
     5.7030000E-01    6.4684300E+01
     5.7075000E-01    6.5448500E+01
     5.7121000E-01    6.6301300E+01
     5.7166000E-01    6.7114700E+01
     5.7211000E-01    6.8084500E+01
     5.7256000E-01    6.8983500E+01
     5.7302000E-01    6.9830600E+01
     5.7347000E-01    7.0533800E+01
     5.7392000E-01    7.1295000E+01
     5.7437000E-01    7.1874600E+01
     5.7483000E-01    7.2353500E+01
     5.7528000E-01    7.2629800E+01
     5.7573000E-01    7.2868000E+01
     5.7618000E-01    7.3247400E+01
     5.7664000E-01    7.3506300E+01
     5.7709000E-01    7.3748400E+01
     5.7754000E-01    7.3993900E+01
     5.7799000E-01    7.4277600E+01
     5.7845000E-01    7.4620200E+01
     5.7890000E-01    7.4954000E+01
     5.7935000E-01    7.5034100E+01
     5.7980000E-01    7.5184900E+01
     5.8025000E-01    7.5418000E+01
     5.8071000E-01    7.5669700E+01
     5.8116000E-01    7.5806100E+01
     5.8161000E-01    7.6023200E+01
     5.8206000E-01    7.6216300E+01
     5.8252000E-01    7.6476600E+01
     5.8297000E-01    7.6777000E+01
     5.8342000E-01    7.6939700E+01
     5.8387000E-01    7.6928700E+01
     5.8432000E-01    7.6946600E+01
     5.8478000E-01    7.6685300E+01
     5.8523000E-01    7.6519700E+01
     5.8568000E-01    7.6421900E+01
     5.8613000E-01    7.6289500E+01
     5.8658000E-01    7.6210700E+01
     5.8703000E-01    7.6146600E+01
     5.8749000E-01    7.6160300E+01
     5.8794000E-01    7.6358800E+01
     5.8839000E-01    7.6471800E+01
     5.8884000E-01    7.6638000E+01
     5.8929000E-01    7.6874200E+01
     5.8974000E-01    7.7036600E+01
     5.9020000E-01    7.7234400E+01
     5.9065000E-01    7.7458200E+01
     5.9110000E-01    7.7639500E+01
     5.9155000E-01    7.7856900E+01
     5.9200000E-01    7.7987600E+01
     5.9245000E-01    7.7914700E+01
     5.9291000E-01    7.7730100E+01
     5.9336000E-01    7.7637400E+01
     5.9381000E-01    7.7524100E+01
     5.9426000E-01    7.7276700E+01
     5.9471000E-01    7.6964000E+01
     5.9516000E-01    7.6610700E+01
     5.9561000E-01    7.6401700E+01
     5.9607000E-01    7.6299300E+01
     5.9652000E-01    7.6148900E+01
     5.9697000E-01    7.5970200E+01
     5.9742000E-01    7.6053600E+01
     5.9787000E-01    7.6140700E+01
     5.9832000E-01    7.6197000E+01
     5.9877000E-01    7.6148100E+01
     5.9922000E-01    7.6153400E+01
     5.9967000E-01    7.6134400E+01
     6.0013000E-01    7.6170200E+01
     6.0058000E-01    7.6023300E+01
     6.0103000E-01    7.5827100E+01
     6.0148000E-01    7.5613300E+01
     6.0193000E-01    7.5433600E+01
     6.0238000E-01    7.5399500E+01
     6.0283000E-01    7.5337900E+01
     6.0328000E-01    7.5144300E+01
     6.0373000E-01    7.5016900E+01
     6.0418000E-01    7.5093400E+01
     6.0463000E-01    7.5329600E+01
     6.0509000E-01    7.5578500E+01
     6.0554000E-01    7.5557500E+01
     6.0599000E-01    7.5582600E+01
     6.0644000E-01    7.5634600E+01
     6.0689000E-01    7.5667400E+01
     6.0734000E-01    7.5473800E+01
     6.0779000E-01    7.5046000E+01
     6.0824000E-01    7.4457800E+01
     6.0869000E-01    7.3915200E+01
     6.0914000E-01    7.3391800E+01
     6.0959000E-01    7.2886800E+01
     6.1004000E-01    7.2388600E+01
     6.1049000E-01    7.1958500E+01
     6.1094000E-01    7.1675000E+01
     6.1139000E-01    7.1484100E+01
     6.1184000E-01    7.1427200E+01
     6.1229000E-01    7.1393900E+01
     6.1275000E-01    7.1488700E+01
     6.1320000E-01    7.1574400E+01
     6.1365000E-01    7.1629900E+01
     6.1410000E-01    7.1604600E+01
     6.1455000E-01    7.1584400E+01
     6.1500000E-01    7.1475100E+01
     6.1545000E-01    7.1367400E+01
     6.1590000E-01    7.1209000E+01
     6.1635000E-01    7.0990000E+01
     6.1680000E-01    7.0620600E+01
     6.1725000E-01    7.0279400E+01
     6.1770000E-01    7.0106500E+01
     6.1815000E-01    7.0119400E+01
     6.1860000E-01    7.0193200E+01
     6.1905000E-01    7.0079400E+01
     6.1950000E-01    6.9942200E+01
     6.1995000E-01    6.9924700E+01
     6.2040000E-01    6.9837300E+01
     6.2085000E-01    6.9635800E+01
     6.2130000E-01    6.9309700E+01
     6.2175000E-01    6.8857500E+01
     6.2220000E-01    6.8493000E+01
     6.2265000E-01    6.8239900E+01
     6.2310000E-01    6.8079000E+01
     6.2355000E-01    6.8069300E+01
     6.2400000E-01    6.8055600E+01
     6.2445000E-01    6.8040200E+01
     6.2489000E-01    6.8058000E+01
     6.2534000E-01    6.7917400E+01
     6.2579000E-01    6.7721800E+01
     6.2624000E-01    6.7537000E+01
     6.2669000E-01    6.7258900E+01
     6.2714000E-01    6.6920900E+01
     6.2759000E-01    6.6549900E+01
     6.2804000E-01    6.6194500E+01
     6.2849000E-01    6.6122800E+01
     6.2894000E-01    6.6135100E+01
     6.2939000E-01    6.5968100E+01
     6.2984000E-01    6.5805300E+01
     6.3029000E-01    6.5695600E+01
     6.3074000E-01    6.5546400E+01
     6.3119000E-01    6.5501000E+01
     6.3164000E-01    6.5343200E+01
     6.3209000E-01    6.5071600E+01
     6.3254000E-01    6.5034900E+01
     6.3298000E-01    6.4872700E+01
     6.3343000E-01    6.4674500E+01
     6.3388000E-01    6.4470400E+01
     6.3433000E-01    6.4170200E+01
     6.3478000E-01    6.4006000E+01
     6.3523000E-01    6.3970000E+01
     6.3568000E-01    6.3850300E+01
     6.3613000E-01    6.3952100E+01
     6.3658000E-01    6.3971500E+01
     6.3703000E-01    6.4013400E+01
     6.3747000E-01    6.4066500E+01
     6.3792000E-01    6.3922000E+01
     6.3837000E-01    6.3634900E+01
     6.3882000E-01    6.3133200E+01
     6.3927000E-01    6.2747900E+01
     6.3972000E-01    6.2450900E+01
     6.4017000E-01    6.2241100E+01
     6.4062000E-01    6.1924600E+01
     6.4107000E-01    6.1527200E+01
     6.4151000E-01    6.1173200E+01
     6.4196000E-01    6.1005600E+01
     6.4241000E-01    6.0699000E+01
     6.4286000E-01    6.0420100E+01
     6.4331000E-01    6.0108800E+01
     6.4376000E-01    5.9849600E+01
     6.4421000E-01    5.9689500E+01
     6.4465000E-01    5.9600900E+01
     6.4510000E-01    5.9472900E+01
     6.4555000E-01    5.9318100E+01
     6.4600000E-01    5.9210500E+01
     6.4645000E-01    5.8912200E+01
     6.4690000E-01    5.8719400E+01
     6.4735000E-01    5.8589600E+01
     6.4779000E-01    5.8318900E+01
     6.4824000E-01    5.8117400E+01
     6.4869000E-01    5.8003200E+01
     6.4914000E-01    5.7885300E+01
     6.4959000E-01    5.7803800E+01
     6.5003000E-01    5.7508900E+01
     6.5048000E-01    5.7230700E+01
     6.5093000E-01    5.6960200E+01
     6.5138000E-01    5.6737200E+01
     6.5183000E-01    5.6420000E+01
     6.5228000E-01    5.6012500E+01
     6.5272000E-01    5.5642500E+01
     6.5317000E-01    5.5442300E+01
     6.5362000E-01    5.5143400E+01
     6.5407000E-01    5.4932000E+01
     6.5452000E-01    5.4616000E+01
     6.5496000E-01    5.4277100E+01
     6.5541000E-01    5.3970800E+01
     6.5586000E-01    5.3742400E+01
     6.5631000E-01    5.3477900E+01
     6.5675000E-01    5.3237400E+01
     6.5720000E-01    5.3055200E+01
     6.5765000E-01    5.2865400E+01
     6.5810000E-01    5.2729600E+01
     6.5855000E-01    5.2596600E+01
     6.5899000E-01    5.2396300E+01
     6.5944000E-01    5.2117900E+01
     6.5989000E-01    5.1815700E+01
     6.6034000E-01    5.1584700E+01
     6.6078000E-01    5.1394800E+01
     6.6123000E-01    5.1186800E+01
     6.6168000E-01    5.0861600E+01
     6.6213000E-01    5.0541000E+01
     6.6257000E-01    5.0394800E+01
     6.6302000E-01    5.0330200E+01
     6.6347000E-01    5.0154000E+01
     6.6392000E-01    4.9875800E+01
     6.6436000E-01    4.9596500E+01
     6.6481000E-01    4.9427100E+01
     6.6526000E-01    4.9328500E+01
     6.6571000E-01    4.9134400E+01
     6.6615000E-01    4.8971900E+01
     6.6660000E-01    4.8826500E+01
     6.6705000E-01    4.8748300E+01
     6.6749000E-01    4.8500500E+01
     6.6794000E-01    4.8328800E+01
     6.6839000E-01    4.8150800E+01
     6.6884000E-01    4.7893600E+01
     6.6928000E-01    4.7678000E+01
     6.6973000E-01    4.7478800E+01
     6.7018000E-01    4.7249400E+01
     6.7062000E-01    4.7259400E+01
     6.7107000E-01    4.7270100E+01
     6.7152000E-01    4.7249600E+01
     6.7197000E-01    4.7182000E+01
     6.7241000E-01    4.6935300E+01
     6.7286000E-01    4.6644100E+01
     6.7331000E-01    4.6416900E+01
     6.7375000E-01    4.6189400E+01
     6.7420000E-01    4.5913400E+01
     6.7465000E-01    4.5625000E+01
     6.7509000E-01    4.5333800E+01
     6.7554000E-01    4.5006300E+01
     6.7599000E-01    4.4663100E+01
     6.7643000E-01    4.4388900E+01
     6.7688000E-01    4.4061600E+01
     6.7733000E-01    4.3673000E+01
     6.7777000E-01    4.3345100E+01
     6.7822000E-01    4.3223900E+01
     6.7867000E-01    4.3134100E+01
     6.7911000E-01    4.2944700E+01
     6.7956000E-01    4.2710800E+01
     6.8001000E-01    4.2403000E+01
     6.8045000E-01    4.2201400E+01
     6.8090000E-01    4.2062500E+01
     6.8134000E-01    4.1696000E+01
     6.8179000E-01    4.1303100E+01
     6.8224000E-01    4.0979000E+01
     6.8268000E-01    4.0717300E+01
     6.8313000E-01    4.0533200E+01
     6.8358000E-01    4.0276600E+01
     6.8402000E-01    3.9989600E+01
     6.8447000E-01    3.9855300E+01
     6.8492000E-01    3.9754500E+01
     6.8536000E-01    3.9559700E+01
     6.8581000E-01    3.9255400E+01
     6.8625000E-01    3.8972500E+01
     6.8670000E-01    3.8655600E+01
     6.8715000E-01    3.8267500E+01
     6.8759000E-01    3.7890900E+01
     6.8804000E-01    3.7637500E+01
     6.8848000E-01    3.7518200E+01
     6.8893000E-01    3.7404200E+01
     6.8938000E-01    3.7204500E+01
     6.8982000E-01    3.7043000E+01
     6.9027000E-01    3.6834500E+01
     6.9071000E-01    3.6581900E+01
     6.9116000E-01    3.6281700E+01
     6.9160000E-01    3.5931100E+01
     6.9205000E-01    3.5609500E+01
     6.9250000E-01    3.5319300E+01
     6.9294000E-01    3.5025200E+01
     6.9339000E-01    3.4803300E+01
     6.9383000E-01    3.4623500E+01
     6.9428000E-01    3.4522200E+01
     6.9472000E-01    3.4344900E+01
     6.9517000E-01    3.4078000E+01
     6.9562000E-01    3.3880500E+01
     6.9606000E-01    3.3755200E+01
     6.9651000E-01    3.3592900E+01
     6.9695000E-01    3.3321000E+01
     6.9740000E-01    3.3011400E+01
     6.9784000E-01    3.2822200E+01
     6.9829000E-01    3.2698000E+01
     6.9873000E-01    3.2519000E+01
     6.9918000E-01    3.2167300E+01
     6.9962000E-01    3.1796300E+01
     7.0007000E-01    3.1539000E+01
     7.0051000E-01    3.1279900E+01
     7.0096000E-01    3.1042500E+01
     7.0141000E-01    3.0821400E+01
     7.0185000E-01    3.0557700E+01
     7.0230000E-01    3.0432500E+01
     7.0274000E-01    3.0327800E+01
     7.0319000E-01    3.0136100E+01
     7.0363000E-01    2.9923400E+01
     7.0408000E-01    2.9697600E+01
     7.0452000E-01    2.9464000E+01
     7.0497000E-01    2.9237500E+01
     7.0541000E-01    2.8983000E+01
     7.0586000E-01    2.8754200E+01
     7.0630000E-01    2.8556800E+01
     7.0675000E-01    2.8341200E+01
     7.0719000E-01    2.8098600E+01
     7.0764000E-01    2.7870600E+01
     7.0808000E-01    2.7650200E+01
     7.0852000E-01    2.7402300E+01
     7.0897000E-01    2.7068000E+01
     7.0941000E-01    2.6835500E+01
     7.0986000E-01    2.6554600E+01
     7.1030000E-01    2.6292700E+01
     7.1075000E-01    2.5956200E+01
     7.1119000E-01    2.5745000E+01
     7.1164000E-01    2.5558200E+01
     7.1208000E-01    2.5514300E+01
     7.1253000E-01    2.5383800E+01
     7.1297000E-01    2.5280500E+01
     7.1342000E-01    2.5190000E+01
     7.1386000E-01    2.5173200E+01
     7.1430000E-01    2.4981600E+01
     7.1475000E-01    2.4812000E+01
     7.1519000E-01    2.4587300E+01
     7.1564000E-01    2.4308000E+01
     7.1608000E-01    2.4076400E+01
     7.1653000E-01    2.3843200E+01
     7.1697000E-01    2.3572500E+01
     7.1741000E-01    2.3411700E+01
     7.1786000E-01    2.3222900E+01
     7.1830000E-01    2.3021900E+01
     7.1875000E-01    2.2920500E+01
     7.1919000E-01    2.2812700E+01
     7.1964000E-01    2.2676400E+01
     7.2008000E-01    2.2536600E+01
     7.2052000E-01    2.2396400E+01
     7.2097000E-01    2.2246200E+01
     7.2141000E-01    2.2071500E+01
     7.2186000E-01    2.1847300E+01
     7.2230000E-01    2.1641700E+01
     7.2274000E-01    2.1431700E+01
     7.2319000E-01    2.1192700E+01
     7.2363000E-01    2.0898000E+01
     7.2407000E-01    2.0671700E+01
     7.2452000E-01    2.0428200E+01
     7.2496000E-01    2.0174700E+01
     7.2541000E-01    1.9890200E+01
     7.2585000E-01    1.9617000E+01
     7.2629000E-01    1.9427000E+01
     7.2674000E-01    1.9278900E+01
     7.2718000E-01    1.9105500E+01
     7.2762000E-01    1.9015800E+01
     7.2807000E-01    1.8912700E+01
     7.2851000E-01    1.8809100E+01
     7.2896000E-01    1.8748200E+01
     7.2940000E-01    1.8661100E+01
     7.2984000E-01    1.8535200E+01
     7.3029000E-01    1.8397900E+01
     7.3073000E-01    1.8255300E+01
     7.3117000E-01    1.8150800E+01
     7.3162000E-01    1.8028000E+01
     7.3206000E-01    1.7837100E+01
     7.3250000E-01    1.7599800E+01
     7.3295000E-01    1.7375200E+01
     7.3339000E-01    1.7143000E+01
     7.3383000E-01    1.6914300E+01
     7.3428000E-01    1.6718500E+01
     7.3472000E-01    1.6555700E+01
     7.3516000E-01    1.6432100E+01
     7.3561000E-01    1.6382700E+01
     7.3605000E-01    1.6350900E+01
     7.3649000E-01    1.6329600E+01
     7.3693000E-01    1.6288800E+01
     7.3738000E-01    1.6193500E+01
     7.3782000E-01    1.6053400E+01
     7.3826000E-01    1.5883100E+01
     7.3871000E-01    1.5710100E+01
     7.3915000E-01    1.5608000E+01
     7.3959000E-01    1.5488400E+01
     7.4004000E-01    1.5330800E+01
     7.4048000E-01    1.5216000E+01
     7.4092000E-01    1.5115700E+01
     7.4136000E-01    1.5017700E+01
     7.4181000E-01    1.4872600E+01
     7.4225000E-01    1.4635700E+01
     7.4269000E-01    1.4463500E+01
     7.4313000E-01    1.4370600E+01
     7.4358000E-01    1.4221100E+01
     7.4402000E-01    1.4060700E+01
     7.4446000E-01    1.3962700E+01
     7.4491000E-01    1.3873500E+01
     7.4535000E-01    1.3799200E+01
     7.4579000E-01    1.3662600E+01
     7.4623000E-01    1.3484100E+01
     7.4668000E-01    1.3333300E+01
     7.4712000E-01    1.3197100E+01
     7.4756000E-01    1.2976000E+01
     7.4800000E-01    1.2786900E+01
     7.4844000E-01    1.2594800E+01
     7.4889000E-01    1.2442200E+01
     7.4933000E-01    1.2306600E+01
     7.4977000E-01    1.2191400E+01
     7.5021000E-01    1.2076000E+01
     7.5066000E-01    1.2053500E+01
     7.5110000E-01    1.1964000E+01
     7.5154000E-01    1.1875600E+01
     7.5198000E-01    1.1756200E+01
     7.5242000E-01    1.1616700E+01
     7.5287000E-01    1.1501000E+01
     7.5331000E-01    1.1378800E+01
     7.5375000E-01    1.1195500E+01
     7.5419000E-01    1.1074000E+01
     7.5463000E-01    1.0976000E+01
     7.5508000E-01    1.0887100E+01
     7.5552000E-01    1.0809100E+01
     7.5596000E-01    1.0663200E+01
     7.5640000E-01    1.0538000E+01
     7.5684000E-01    1.0447900E+01
     7.5729000E-01    1.0322400E+01
     7.5773000E-01    1.0208500E+01
     7.5817000E-01    1.0110000E+01
     7.5861000E-01    9.9760000E+00
     7.5905000E-01    9.8554000E+00
     7.5949000E-01    9.7529000E+00
     7.5994000E-01    9.6142000E+00
     7.6038000E-01    9.5036000E+00
     7.6082000E-01    9.3538000E+00
     7.6126000E-01    9.2613000E+00
     7.6170000E-01    9.1684000E+00
     7.6214000E-01    9.1022000E+00
     7.6259000E-01    9.0162000E+00
     7.6303000E-01    8.9862000E+00
     7.6347000E-01    8.9397000E+00
     7.6391000E-01    8.9073000E+00
     7.6435000E-01    8.8134000E+00
     7.6479000E-01    8.7163000E+00
     7.6523000E-01    8.5997000E+00
     7.6568000E-01    8.4981000E+00
     7.6612000E-01    8.3619000E+00
     7.6656000E-01    8.2293000E+00
     7.6700000E-01    8.0996000E+00
     7.6744000E-01    7.9974000E+00
     7.6788000E-01    7.8795000E+00
     7.6832000E-01    7.8042000E+00
     7.6876000E-01    7.7379000E+00
     7.6921000E-01    7.6440000E+00
     7.6965000E-01    7.5421000E+00
     7.7009000E-01    7.4844000E+00
     7.7053000E-01    7.3661000E+00
     7.7097000E-01    7.3132000E+00
     7.7141000E-01    7.2252000E+00
     7.7185000E-01    7.1504000E+00
     7.7229000E-01    7.0892000E+00
     7.7273000E-01    7.0344000E+00
     7.7317000E-01    6.9366000E+00
     7.7361000E-01    6.8724000E+00
     7.7406000E-01    6.7762000E+00
     7.7450000E-01    6.6752000E+00
     7.7494000E-01    6.5283000E+00
     7.7538000E-01    6.4305000E+00
     7.7582000E-01    6.3406000E+00
     7.7626000E-01    6.2540000E+00
     7.7670000E-01    6.1968000E+00
     7.7714000E-01    6.1752000E+00
     7.7758000E-01    6.1004000E+00
     7.7802000E-01    6.0428000E+00
     7.7846000E-01    5.9613000E+00
     7.7890000E-01    5.8728000E+00
     7.7934000E-01    5.7960000E+00
     7.7978000E-01    5.6920000E+00
     7.8022000E-01    5.5759000E+00
     7.8066000E-01    5.5396000E+00
     7.8110000E-01    5.4876000E+00
     7.8154000E-01    5.4480000E+00
     7.8198000E-01    5.4253000E+00
     7.8242000E-01    5.3739000E+00
     7.8287000E-01    5.3222000E+00
     7.8331000E-01    5.2784000E+00
     7.8375000E-01    5.2026000E+00
     7.8419000E-01    5.1236000E+00
     7.8463000E-01    5.0306000E+00
     7.8507000E-01    4.9325000E+00
     7.8551000E-01    4.8630000E+00
     7.8595000E-01    4.7985000E+00
     7.8639000E-01    4.6910000E+00
